# E[eV], EF_E [erg/cm^3s]
2.148045441666062106e+04,0.000000000000000000e+00
2.373957352834291305e+04,0.000000000000000000e+00
2.623628627104307088e+04,2.354369109869312709e-24
2.899558058506422094e+04,2.875632986984278449e-24
3.204507241533183333e+04,3.512306146074807693e-24
3.541528210105287872e+04,4.289940528133040287e-24
3.913993983352864598e+04,5.239745347037888296e-24
4.325632323924644879e+04,6.399839626311670315e-24
4.780563046689503244e+04,7.816782051296731751e-24
5.283339251228352077e+04,9.547439535265310235e-24
5.838992890785140480e+04,1.166126949181680455e-23
6.453085133746190695e+04,1.424310740948352742e-23
7.131762021682590421e+04,1.739657160412998914e-23
7.881815980999995372e+04,2.124822179439129758e-23
8.710753803825072828e+04,2.595263839916387871e-23
9.626871778504291433e+04,3.169862640824429821e-23
1.063933872164612694e+05,3.871679281064650972e-23
1.175828774271943257e+05,4.728880169131988353e-23
1.299491765961889032e+05,5.775867843838287943e-23
1.436160508019844710e+05,7.054661674189132438e-23
1.587202827152279788e+05,8.616584251219851161e-23
1.754130405656148214e+05,1.052432115325224066e-22
1.938613910843412741e+05,1.285443675104329905e-22
2.142499715641038783e+05,1.570044702207936348e-22
2.367828377711820358e+05,1.917657269840725806e-22
2.616855062041342608e+05,2.342232337711604573e-22
2.892072111387135810e+05,2.860809657276917223e-22
3.196233990482696099e+05,3.494201642526984276e-22
3.532384853646357078e+05,4.267828652971308769e-22
3.903889011700855335e+05,5.212739212362611465e-22
4.314464603126865113e+05,6.366856109065954355e-22
4.768220806442599860e+05,7.776498389733317894e-22
5.269698966243572067e+05,9.498240330958320961e-22
5.823918044505708385e+05,1.160118199829816863e-21
6.436424852043701103e+05,1.416972252131001979e-21
7.113349562858048594e+05,1.730694739010697129e-21
7.861467066976834321e+05,2.113876572326019379e-21
8.688264775832252344e+05,2.581896355785945938e-21
9.602017558790857438e+05,3.153537597843039172e-21
1.061187056082737632e+06,3.851742580798327310e-21
1.172793073020952521e+06,4.704533143432705283e-21
1.296136797223325586e+06,5.746135333967629209e-21
1.432452694138931576e+06,7.018353073086462696e-21
1.583105059081460349e+06,8.572245961604868304e-21
1.749601671555259032e+06,1.047017857540284400e-20
1.933608885619412875e+06,1.278832350152188443e-20
2.136968307319235988e+06,1.561971858252668155e-20
2.361715226098565850e+06,1.907800108256505245e-20
2.610098984660586808e+06,2.330196866121197434e-20
2.884605491145655047e+06,2.846115023118354908e-20
3.187982098935497459e+06,3.476261031603582151e-20
3.523265103089272510e+06,4.245926004193479603e-20
3.893810128605067264e+06,5.186000838201693175e-20
4.303325714642716572e+06,6.334216115182645720e-20
4.755910430830231868e+06,7.736656549706365965e-20
5.256093897126195021e+06,9.449610784508510824e-20
5.808882117778763175e+06,1.154183079371676595e-19
6.419807583098776639e+06,1.409729160285989497e-19
7.094984640482277609e+06,1.721856212461293074e-19
7.841170688854413107e+06,2.103092244998450725e-19
8.665833808989088982e+06,2.568739291211340397e-19
9.577227506571460515e+06,3.137487685887380633e-19
1.058447331605692394e+07,3.832166380309781980e-19
1.169765209205383249e+07,4.680659426386636313e-19
1.292790490190464817e+07,5.717025436634698255e-19
1.428754452923262119e+07,6.982864981589260643e-19
1.579017870441871881e+07,8.528990848508670736e-19
1.745084629534097016e+07,1.041746825587267302e-18
1.928616782141900808e+07,1.272410698697952528e-18
2.131451179735865071e+07,1.554150557153216093e-18
2.355617857142107189e+07,1.898276983802321925e-18
2.603360349813133478e+07,2.318605527605450656e-18
2.877158147884719446e+07,2.832011577922390424e-18
3.179751511746586487e+07,3.459108182157174992e-18
3.514168897489401698e+07,4.225074058651398021e-18
3.883757266711248457e+07,5.160665101265704582e-18
4.292215584034239501e+07,6.303450058602453803e-18
4.743631837585721165e+07,7.699320097648000636e-18
5.242523952957485616e+07,9.404332993547265107e-18
5.793885010123596340e+07,1.148696617035514288e-17
6.403233215863024443e+07,1.403086929748072572e-17
7.076667131827823818e+07,1.713822729036677636e-17
7.820926710997913778e+07,2.093386918782739066e-17
8.643460753395923972e+07,2.557028848067406381e-17
9.552501456181398034e+07,3.123377726798315987e-17
1.055714680424695462e+08,3.815192161257284150e-17
1.166745162590900064e+08,4.660276048370562331e-17
1.289452822500905544e+08,5.692597794883051469e-17
1.425065759658561647e+08,6.953658054298826139e-17
1.574941233920022249e+08,8.494161235090219391e-17
1.740579249406583607e+08,1.037605833762183536e-16
1.923637567050096393e+08,1.267504372507975915e-16
2.125948296021559536e+08,1.548360683746099235e-16
2.349536230095507205e+08,1.891476236529423120e-16
2.596639112466646731e+08,2.310660992475074441e-16
2.869730031835899949e+08,2.822790793310045782e-16
3.171542173913338184e+08,3.448488753248924408e-16
3.505096176059437394e+08,4.212958270616208485e-16
3.873730358839052916e+08,5.147001418700060527e-16
4.281134137055662274e+08,6.288263981497763086e-16
4.731384944654803276e+08,7.682757561150329073e-16
5.228989043053445816e+08,9.386720356560890620e-16
5.778926621318879128e+08,1.146889182435440940e-15
6.386701639574786425e+08,1.401329299401548978e-15
7.058396914484107494e+08,1.712262432291469842e-15
7.800734998122720718e+08,2.092241735273754788e-15
8.621145459540125132e+08,2.556610588727571143e-15
9.527839242383661270e+08,3.124121788643679145e-15
1.052989084278233409e+09,3.817693179925818022e-15
1.163732912995410204e+09,4.665329174925780585e-15
1.286123771849985600e+09,5.701243595984425508e-15
1.421386589694363594e+09,6.967226308751841485e-15
1.570875122272933722e+09,8.514304245106756892e-15
1.736085501064573526e+09,1.040475666512348009e-14
1.918671207069354534e+09,1.271455478506986607e-14
2.120459619402150154e+09,1.553630693300883537e-14
2.343470304317012310e+09,1.898280162998136754e-14
2.589935227705049992e+09,2.319125143593331046e-14
2.862321093359252453e+09,2.832834838317093527e-14
3.163354030575135708e+09,3.459624470657130898e-14
3.496046878169023037e+09,4.223956632853752687e-14
3.863729337981560707e+09,5.155354517181599823e-14
4.270081299652895927e+09,6.289331121400854875e-14
4.719169670195046425e+09,7.668430419097785080e-14
5.215489076964209557e+09,9.343363173736156173e-14
5.764006851402049065e+09,1.137419946360789295e-13
6.370212743758322716e+09,1.383154957837330517e-13
7.040173866356577873e+09,1.679762212754731561e-13
7.780595415293481827e+09,2.036699098098120053e-13
8.598887778295070648e+09,2.464683137474838290e-13
9.503240700367830276e+09,2.975630626103298561e-13
1.050270524951937485e+10,3.582471529989871678e-13
1.160728440288925171e+10,3.879981487266040711e-13
1.282803315990625763e+10,4.205311620079960524e-13
1.417716918443845177e+10,4.551028617886102198e-13
1.566819508327962494e+10,4.903750011452791353e-13
1.731603354477648926e+10,5.242705804327442208e-13
1.913717669010934448e+10,5.539267740261253881e-13
2.114985113198402786e+10,5.759192659142173740e-13
2.337420039269806671e+10,5.871059249993791902e-13
2.583248650728228378e+10,5.867543631395475274e-13
2.854931282942993927e+10,5.863031004759962045e-13
3.155187027012995529e+10,5.858140538849455529e-13
3.487020943344324493e+10,5.853519739766063845e-13
3.853754137304859161e+10,5.849854743094601204e-13
4.259056997963035583e+10,5.847880413134005217e-13
4.706985932575320435e+10,5.848389444784735460e-13
5.202023964473426056e+10,5.852239235162779446e-13
5.749125600668614960e+10,5.860354708388087658e-13
6.353766418223143768e+10,5.873724520848514321e-13
7.021997865665890503e+10,5.893387160889880994e-13
7.760507827923210144e+10,5.920402478096107055e-13
8.576687560919145203e+10,5.955803384584859076e-13
9.478705665748994446e+10,6.000522430000333812e-13
1.047558984278466187e+11,6.026518149976831668e-13
1.157731724393425598e+11,6.049775133520153079e-13
1.279491432733184662e+11,6.068806539506610604e-13
1.414056721383659363e+11,6.081279523860647606e-13
1.562774364982619019e+11,6.086388556982601974e-13
1.727132779692928772e+11,6.084283479459340565e-13
1.908776919771779175e+11,6.076016427478965329e-13
2.109524740825783997e+11,6.063830636206269112e-13
2.331385394521724854e+11,6.050035337687305994e-13
2.576579336851729736e+11,6.035519864839534390e-13
2.847560551203169556e+11,6.020897013091854205e-13
3.147041108649204712e+11,6.006505699308193030e-13
3.478018311267645264e+11,5.992471245616691503e-13
3.843804690147576904e+11,5.978806372579673137e-13
4.248061158313876953e+11,5.965495999760141744e-13
4.694833650375247192e+11,5.952524092684798878e-13
5.188593615597655640e+11,5.939873826562857803e-13
5.734282769671506348e+11,5.927527775374296011e-13
6.337362553063226318e+11,5.915468046903155261e-13
7.003868790947113037e+11,5.903676412913770739e-13
7.740472101772397461e+11,5.892134438229686385e-13
8.554544659054739990e+11,5.880823574629188039e-13
9.454233974566655273e+11,5.869725250479268119e-13
1.044854444137380981e+12,5.858820954013764487e-13
1.154742745282729492e+12,5.848092294421137398e-13
1.276188099945308594e+12,5.837521041387771036e-13
1.410405974053772461e+12,5.827089184968722614e-13
1.558739665204385498e+12,5.816778971418750006e-13
1.722673746834858887e+12,5.806572947467013680e-13
1.903848926334296143e+12,5.796453924229795742e-13
2.104078465794211426e+12,5.786405053020123809e-13
2.325366329744987793e+12,5.776409775899473383e-13
2.569927241506468750e+12,5.766451880204265796e-13
2.840208848883319824e+12,5.756515503592765508e-13
3.138916221046955566e+12,5.746585088805623257e-13
3.469038921777008789e+12,5.736645383157132713e-13
3.833880930020449219e+12,5.726681362963074699e-13
4.237093707223420410e+12,5.716678347591226922e-13
4.682712742384655273e+12,5.706621866889028244e-13
5.175197940585781250e+12,5.696497669851732762e-13
5.719478259220390625e+12,5.686291648635293495e-13
6.321001038656304688e+12,5.675989926263868653e-13
6.985786521048915039e+12,5.665578756484068553e-13
7.720488102948110352e+12,5.655044483310503338e-13
8.532458924727273438e+12,5.644373573730179970e-13
9.429825463283599609e+12,5.633552392557456912e-13
1.042156886455025391e+13,5.622567401116355822e-13
1.151761482982359375e+13,5.611404974682716200e-13
1.272893295551783008e+13,5.600051362756253457e-13
1.406764652057300195e+13,5.588492741962384056e-13
1.554715382030536328e+13,5.576714922923239267e-13
1.718226226105018750e+13,5.564703564034849726e-13
1.898933655766139453e+13,5.552444074786777281e-13
2.098646251707809375e+13,5.539921458397459743e-13
2.319362804715935156e+13,5.527120381660666293e-13
2.563292320238421094e+13,5.514024931817505257e-13
2.832876126854151562e+13,5.500618804389458312e-13
3.130812309909989453e+13,5.486885428999819779e-13
3.460082714865760547e+13,5.472806527526968710e-13
3.823982790605870312e+13,5.458364604018789967e-13
4.226154571399368750e+13,5.443540925285625481e-13
4.670623127603034375e+13,5.428315247156989647e-13
5.161836849918400000e+13,5.412667214366048784e-13
5.704711970381025781e+13,5.396575058110164192e-13
6.304681765663132812e+13,5.380016783788339712e-13
6.967750935132716406e+13,5.362969735006397368e-13
7.700555697903087500e+13,5.345408840580198534e-13
8.510430210344212500e+13,5.327308991544144244e-13
9.405479968784835938e+13,5.308643948690925030e-13
1.039466293204404844e+14,5.289385974657708019e-13
1.148787917569402031e+14,5.269506340049556780e-13
1.269606997534389062e+14,5.248975258630566434e-13
1.403132731060346719e+14,5.227761497521165471e-13
1.550701488567953438e+14,5.205831346432201608e-13
1.713790187781918438e+14,5.183152057602140770e-13
1.894031075219978125e+14,5.159687626432784098e-13
2.093228062264672812e+14,5.135401827621819383e-13
2.313374779314756250e+14,5.110255701388956831e-13
2.556674528708336875e+14,5.084212505882044613e-13
2.825562336113215625e+14,5.057230727294750949e-13
3.122729321082218750e+14,5.029267703611283268e-13
3.451149630682177500e+14,5.000281261935996812e-13
3.814110205757453125e+14,4.970227716526315172e-13
4.215243677738660625e+14,4.939062817703073457e-13
4.658564725239003750e+14,4.906739101681935094e-13
5.148510254307223750e+14,4.873211478868897235e-13
5.689983804474598750e+14,4.838432615833745781e-13
6.288404625026755000e+14,4.802350621845848432e-13
6.949761912671966250e+14,4.764920521401152590e-13
7.680674753434841250e+14,4.726090946233329130e-13
8.488458368694046250e+14,4.685818560165443975e-13
9.381197328376510000e+14,4.644050334065717329e-13
1.036782646405067375e+15,4.600738871363648596e-13
1.145822029172387750e+15,4.555841780083817226e-13
1.266329183931748750e+15,4.509307354140577949e-13
1.399510186791838250e+15,4.461088978506831340e-13
1.546697957992956750e+15,4.411145914174745697e-13
1.709365602220804750e+15,4.359440549967408726e-13
1.889141151933298000e+15,4.305930994534439021e-13
2.087823861256609000e+15,4.250579553738167009e-13
2.307402213525213500e+15,4.193355330963308456e-13
2.550073822691440500e+15,4.134241032737586338e-13
2.818267427784574500e+15,4.073201416412567689e-13
3.114667200547371500e+15,4.010217659466977812e-13
3.442239609529044500e+15,3.945280882380018110e-13
3.804263109499578500e+15,3.878390209635404995e-13
4.204360953326966000e+15,3.809541670516428947e-13
4.646537454709766000e+15,3.738756650425831509e-13
5.135218064694474000e+15,3.666023606737083694e-13
5.675293663077040000e+15,3.591377649969866924e-13
6.272169507971765000e+15,3.514862645970443813e-13
6.931819333451237000e+15,3.436505089378290848e-13
7.660845136684826000e+15,3.356372222569476523e-13
8.466543252945325000e+15,3.274495667933003095e-13
9.356977379784762000e+15,3.190953897834440327e-13
1.034105928122980600e+16,3.105844428011839686e-13
1.142863797971143800e+16,3.019234206556250046e-13
1.263059832839189800e+16,2.931242902775769433e-13
1.395896995043361200e+16,2.842010345303157637e-13
1.542704763551108600e+16,2.751608100080223533e-13
1.704952439853456200e+16,2.660182779138959013e-13
1.884263853228158800e+16,2.567860923535777381e-13
2.082433612568920800e+16,2.474788117596185155e-13
2.301445067434381200e+16,2.381149967454230849e-13
2.543490158077124400e+16,2.287079758287196958e-13
2.810991353118474000e+16,2.192777915909694555e-13
3.106625894428649600e+16,2.098411668754305990e-13
3.433352591863289200e+16,2.004082457333567357e-13
3.794441436026954400e+16,1.910065273891265169e-13
4.193506325438186400e+16,1.816505846802967157e-13
4.634541235640563200e+16,1.723631213929092985e-13
5.121960192252326400e+16,1.631624766499441578e-13
5.660641448018421600e+16,1.540684988641767745e-13
6.255976306003580000e+16,1.450933997079884916e-13
6.913923077565471200e+16,1.362756409194981930e-13
7.641066715137451200e+16,1.276314310452766613e-13
8.444684716645728000e+16,1.191695631900802839e-13
9.332819961154745600e+16,1.109161571873224561e-13
1.031436120470411680e+17,1.028863136421991093e-13
1.139913204196668640e+17,9.510111030170557921e-14
1.259798922408587360e+17,8.757519124905664583e-14
1.392293131669009280e+17,8.032369362196278018e-14
1.538721878557056960e+17,7.336266279322527783e-14
1.700550671187987200e+17,6.670397623248549989e-14
1.879399146510985920e+17,6.035458767810623888e-14
2.077057280180138240e+17,5.434055194650909671e-14
2.295503301232385920e+17,4.866467024721997326e-14
2.536923490868679680e+17,4.333476617570796578e-14
2.803734063491019520e+17,3.835121585995388710e-14
3.098605348988329600e+17,3.372290053012760661e-14
3.424488518295549440e+17,2.945313480451518792e-14
3.784645119704198400e+17,2.553901739353793020e-14
4.182679721534014080e+17,2.197541325450367206e-14
4.622575987864147200e+17,1.875659326270389171e-14
5.108736548382252800e+17,1.587175043943140791e-14
5.646027061382238080e+17,1.331096367541193033e-14
6.239824910907744000e+17,1.105721465888434125e-14
6.896073025419217920e+17,9.092349228212952826e-15
7.621339356619276800e+17,7.395480143945019229e-15
8.422882613720972800e+17,5.944731254711809819e-15
9.308724911049433600e+17,4.719754882149207493e-15
1.028773205605813120e+18,3.698583463118309974e-15
1.136970228131004928e+18,2.857651547878659070e-15
1.256546430848222976e+18,2.175758511713441730e-15
1.388698572585206016e+18,1.630726542930911134e-15
1.534749276394335744e+18,1.201804276669676115e-15
1.696160266808660224e+18,8.702872713805830896e-16
1.874546999272365312e+18,6.184918032203122342e-16
2.071694828161793280e+18,4.309164468613656809e-16
2.289576875212135168e+18,2.939950204421927303e-16
2.530373777182971392e+18,1.961774266475349503e-16
2.796495510403843072e+18,1.278767930237417204e-16
3.090605510627445760e+18,8.132987014441940955e-17
3.415647329589794816e+18,5.041007886511771417e-17
3.774874095065379328e+18,3.041327674931377418e-17
4.171881069263391232e+18,1.783833623302994841e-17
4.610641631420243456e+18,1.015909900663423762e-17
5.095547044714501120e+18,5.610732637229901844e-18
5.631450405504786432e+18,3.001301549434896931e-18
6.223715214749190144e+18,1.552645509493849183e-18
6.878269057725749248e+18,7.756712015416443300e-19
7.601662929298095104e+18,3.736032741088251636e-19
8.401136798473974784e+18,1.731864598491422524e-19
9.284692068448606208e+18,7.712472262105883575e-20
1.026117165733700403e+19,3.292445043066049798e-20
1.134034850107096883e+19,1.343941207050221369e-20
1.253302336422641459e+19,5.229078099665635314e-21
1.385113293770561946e+19,1.932803074942713035e-21
1.530786930515198157e+19,6.760123311585602483e-22
1.691781197375680717e+19,2.227466136998452040e-22
1.869707379086802125e+19,6.880566316425996135e-23
2.066346220678177178e+19,1.981653850766997569e-23
2.283665749769041101e+19,5.289436298993107866e-24
2.523840973250166784e+19,1.299837818098017404e-24
2.789275645483816550e+19,2.919388704151941152e-25
3.082626325885398630e+19,5.944222012030349473e-26
3.406828966662930842e+19,1.087361649142934652e-26
3.765128296813573734e+19,1.768824440811875188e-27
4.161110296462063206e+19,2.528677340279093901e-28
4.598738086554998374e+19,3.132176193072115802e-29
5.082391593107442074e+19,3.299706058047779210e-30
5.616911382974512333e+19,2.915080036651575608e-31
6.207647109871484109e+19,2.133909534724169117e-32
6.860511055506318950e+19,1.306052454921486640e-33
7.582037301682031821e+19,6.400647440177443346e-35
8.379447125583750758e+19,2.454192450686026232e-36
9.260721272747753472e+19,7.173636410184572647e-38
1.023467983104529039e+20,1.551769316773882903e-39
1.131107050508665487e+20,2.400589617754218886e-41
1.250066617452497142e+20,2.552941428132496113e-43
1.381537271265697792e+20,1.783421416448502290e-45
1.526834814440438170e+20,7.772584523866462248e-48
1.687413433624996741e+20,1.995362453150051753e-50
1.864880253612520899e+20,2.833066706798584982e-53
2.061011421986092155e+20,2.077608042956630714e-56
2.277769885400768512e+20,7.308042604882528970e-60
2.517325035413433876e+20,1.137948044975315623e-63
2.782074420482670920e+20,7.187337884194622342e-68
3.074667741439613338e+20,1.673312740301867608e-72
3.398033370584388076e+20,1.292589886379293687e-77
3.755407659820440617e+20,2.950238690177846079e-83
4.150367331152081060e+20,1.750530855851059003e-89
4.586865273720511529e+20,2.343425839601787357e-96
5.069270105647012250e+20,0.000000000000000000e+00
5.602409896631330406e+20,0.000000000000000000e+00
6.191620488896151552e+20,0.000000000000000000e+00
6.842798900089360220e+20,0.000000000000000000e+00
7.562462342618772931e+20,0.000000000000000000e+00
8.357813450104513495e+20,0.000000000000000000e+00
9.236812363756982764e+20,0.000000000000000000e+00
1.020825640014581203e+21,0.000000000000000000e+00
1.128186809770076799e+21,0.000000000000000000e+00
1.246839252314429063e+21,0.000000000000000000e+00
1.377970481173093679e+21,0.000000000000000000e+00
1.522892901759206818e+21,0.000000000000000000e+00
1.683056946368111706e+21,0.000000000000000000e+00
1.860065590591244730e+21,0.000000000000000000e+00
2.055690396434643026e+21,0.000000000000000000e+00
2.271889242706970411e+21,0.000000000000000000e+00
2.510825920128644284e+21,0.000000000000000000e+00
2.774891787276711363e+21,0.000000000000000000e+00
3.066729704105181184e+21,0.000000000000000000e+00
3.389260482575775302e+21,0.000000000000000000e+00
3.745712119125787542e+21,0.000000000000000000e+00
4.139652101541317837e+21,0.000000000000000000e+00
